FILE_VERSION	2.0.0
NO_OF_FRAMES	3302
NO_OF_CAMERAS	0
NO_OF_MARKERS	4
FREQUENCY	100
DESCRIPTION	--
TIME_STAMP	2026-03-25, 10:44:47.398	1774431887.39863491
DATA_INCLUDED	3D_ACCELERATION
MARKER_NAMES	RWristIn	LWristIn	RAnkleOut	LAnkleOut
TRAJECTORY_TYPES	Measured	Measured	Measured	Measured
Frame	Time	RWristIn X	RWristIn Y	RWristIn Z	LWristIn X	LWristIn Y	LWristIn Z	RAnkleOut X	RAnkleOut Y	RAnkleOut Z	LAnkleOut X	LAnkleOut Y	LAnkleOut Z
1	0.00000	0.0000	0.0000	0.0000	0.0003	0.0003	0.0027	-0.0001	0.0019	0.0021	0.0000	0.0000	0.0000
2	0.00994	0.0000	0.0000	0.0000	-0.0054	-0.0004	0.0017	0.0008	0.0061	0.0013	0.0038	-0.0092	-0.0029
3	0.01994	0.0000	0.0000	0.0000	0.0000	0.0000	0.0000	0.0000	0.0000	0.0000	0.0000	0.0000	0.0000
4	0.02236	0.0000	0.0000	0.0000	-0.0024	-0.0063	-0.0019	0.0023	0.0067	-0.0023	-0.0027	-0.0099	-0.0052
5	0.03283	0.0000	0.0000	0.0000	0.0013	0.0002	-0.0035	-0.0051	0.0068	0.0034	-0.0026	-0.0048	-0.0038
6	0.04248	0.0000	0.0000	0.0000	-0.0024	-0.0013	0.0036	0.0015	0.0059	0.0020	0.0023	-0.0091	0.0030
7	0.05441	0.0000	0.0000	0.0000	0.0007	-0.0007	-0.0015	-0.0028	0.0059	-0.0038	0.0017	-0.0055	-0.0007
8	0.06466	0.0000	0.0000	0.0000	-0.0023	-0.0058	0.0013	-0.0006	0.0058	-0.0067	-0.0012	-0.0069	-0.0022
9	0.07736	0.0000	0.0000	0.0000	-0.0044	-0.0015	-0.0004	-0.0013	0.0080	-0.0016	0.0017	-0.0062	0.0000
10	0.08708	0.0000	0.0000	0.0000	-0.0029	-0.0023	0.0003	-0.0044	0.0022	-0.0031	0.0010	0.0019	-0.0001
11	0.09907	0.0000	0.0000	0.0000	-0.0020	-0.0030	-0.0048	0.0000	0.0044	0.0013	-0.0034	-0.0069	-0.0044
12	0.10901	0.0000	0.0000	0.0000	-0.0042	-0.0024	-0.0027	0.0023	0.0058	0.0012	-0.0019	-0.0017	-0.0007
13	0.11940	0.0000	0.0000	0.0000	0.0000	0.0000	0.0000	0.0001	0.0087	-0.0010	-0.0040	-0.0017	-0.0051
14	0.12230	0.0000	0.0000	0.0000	-0.0049	0.0005	-0.0049	-0.0029	0.0051	0.0004	-0.0048	-0.0068	-0.0050
15	0.13208	0.0000	0.0000	0.0000	0.0001	-0.0024	0.0016	-0.0028	0.0043	-0.0017	-0.0012	-0.0104	-0.0048
16	0.14252	0.0000	0.0000	0.0000	-0.0050	-0.0024	-0.0008	0.0015	0.0042	-0.0046	-0.0027	-0.0103	-0.0012
17	0.15257	0.0000	0.0000	0.0000	-0.0020	-0.0075	-0.0044	0.0015	0.0049	-0.0024	0.0017	-0.0075	-0.0048
18	0.16333	0.0000	0.0000	0.0000	-0.0027	-0.0081	-0.0037	0.0015	0.0042	-0.0031	0.0003	-0.0082	-0.0040
19	0.17385	0.0000	0.0000	0.0000	0.0039	-0.0067	-0.0079	-0.0006	0.0050	-0.0010	0.0003	-0.0045	-0.0026
20	0.18387	0.0000	0.0000	0.0000	-0.0013	-0.0016	-0.0037	0.0052	0.0041	-0.0017	-0.0012	-0.0089	-0.0040
21	0.19393	0.0000	0.0000	0.0000	-0.0006	0.0006	0.0006	-0.0028	0.0071	-0.0047	-0.0005	-0.0089	-0.0040
22	0.20684	0.0000	0.0000	0.0000	-0.0035	-0.0016	-0.0009	-0.0036	0.0042	-0.0017	-0.0055	-0.0073	-0.0033
23	0.21693	0.0000	0.0000	0.0000	-0.0057	-0.0037	0.0004	-0.0028	0.0071	0.0004	-0.0005	-0.0081	-0.0017
24	0.22891	0.0000	0.0000	0.0000	0.0000	0.0000	0.0000	0.0023	0.0063	-0.0010	-0.0019	-0.0066	-0.0040
25	0.22986	0.0000	0.0000	0.0000	-0.0094	-0.0044	0.0032	0.0024	0.0077	-0.0039	-0.0026	-0.0110	-0.0054
26	0.24863	0.0000	0.0000	0.0000	0.0000	0.0000	0.0000	0.0001	0.0064	-0.0003	-0.0042	-0.0102	0.0019
27	0.25193	0.0000	0.0000	0.0000	-0.0057	-0.0065	0.0003	0.0015	0.0035	-0.0017	-0.0019	-0.0067	-0.0047
28	0.26192	0.0000	0.0000	0.0000	-0.0107	-0.0050	-0.0042	-0.0029	-0.0000	-0.0032	-0.0026	-0.0067	-0.0054
29	0.27412	0.0000	0.0000	0.0000	-0.0084	-0.0072	-0.0078	-0.0022	0.0022	-0.0018	-0.0005	-0.0082	-0.0017
30	0.28393	0.0000	0.0000	0.0000	-0.0055	-0.0028	-0.0099	0.0007	-0.0007	-0.0003	-0.0027	-0.0111	-0.0017
31	0.29666	0.0000	0.0000	0.0000	-0.0021	-0.0019	-0.0033	0.0008	0.0037	-0.0003	0.0032	-0.0025	-0.0054
32	0.30679	0.0000	0.0000	0.0000	0.0009	-0.0048	-0.0068	0.0001	0.0044	-0.0018	0.0031	-0.0105	-0.0031
33	0.31942	0.0000	0.0000	0.0000	-0.0014	-0.0010	-0.0047	0.0022	0.0044	-0.0011	-0.0013	-0.0082	0.0012
34	0.33210	0.0000	0.0000	0.0000	0.0000	0.0000	0.0000	-0.0021	0.0060	-0.0026	-0.0049	-0.0098	-0.0047
35	0.32991	0.0000	0.0000	0.0000	0.0015	0.0020	-0.0047	0.0051	0.0045	0.0011	-0.0020	-0.0113	-0.0039
36	0.34182	0.0000	0.0000	0.0000	-0.0016	-0.0021	-0.0011	-0.0036	0.0048	-0.0026	-0.0042	-0.0106	-0.0033
37	0.35276	0.0000	0.0000	0.0000	-0.0046	0.0031	0.0010	0.0029	0.0025	-0.0040	-0.0035	-0.0091	0.0011
38	0.36240	0.0000	0.0000	0.0000	-0.0098	-0.0002	-0.0012	0.0029	0.0019	-0.0004	0.0009	-0.0078	-0.0004
39	0.37440	0.0000	0.0000	0.0000	-0.0077	0.0007	-0.0018	0.0022	0.0071	-0.0019	-0.0019	-0.0050	-0.0063
40	0.38410	0.0000	0.0000	0.0000	-0.0107	0.0037	0.0018	0.0036	0.0057	0.0010	0.0046	-0.0066	-0.0047
41	0.39431	0.0000	0.0000	0.0000	-0.0100	0.0045	-0.0003	-0.0000	0.0044	0.0009	-0.0014	-0.0109	-0.0011
42	0.40639	0.0000	0.0000	0.0000	-0.0078	0.0046	-0.0023	-0.0036	0.0059	-0.0057	-0.0014	-0.0087	-0.0012
43	0.41647	0.0000	0.0000	0.0000	-0.0086	-0.0004	-0.0036	-0.0014	0.0074	-0.0043	0.0001	-0.0052	-0.0005
44	0.42643	0.0000	0.0000	0.0000	-0.0086	-0.0018	-0.0042	-0.0029	0.0075	0.0015	-0.0050	-0.0095	0.0002
45	0.43700	0.0000	0.0000	0.0000	-0.0031	0.0071	0.0047	0.0007	0.0031	-0.0014	-0.0006	-0.0053	-0.0035
46	0.44937	0.0000	0.0000	0.0000	-0.0025	0.0080	0.0054	-0.0009	0.0003	0.0044	-0.0028	-0.0090	-0.0042
47	0.45926	0.0000	0.0000	0.0000	-0.0047	0.0059	0.0047	-0.0016	-0.0034	-0.0008	-0.0050	-0.0098	-0.0028
48	0.46916	0.0000	0.0000	0.0000	-0.0063	0.0003	0.0068	0.0036	0.0009	-0.0008	-0.0021	-0.0040	-0.0021
49	0.48233	0.0000	0.0000	0.0000	0.0000	0.0000	0.0000	-0.0051	0.0054	-0.0031	-0.0021	-0.0042	-0.0036
50	0.48207	0.0000	0.0000	0.0000	-0.0092	0.0040	0.0046	-0.0020	0.0118	-0.0053	-0.0013	0.0009	-0.0022
51	0.49204	0.0000	0.0000	0.0000	-0.0071	0.0034	0.0061	0.0013	0.0001	0.0021	-0.0007	-0.0028	-0.0006
52	0.50381	0.0000	0.0000	0.0000	-0.0079	0.0085	0.0090	-0.0058	0.0046	-0.0016	-0.0015	-0.0006	0.0037
53	0.51386	0.0000	0.0000	0.0000	0.0050	0.0114	0.0173	0.0007	0.0037	-0.0044	-0.0007	-0.0014	0.0030
54	0.52631	0.0000	0.0000	0.0000	0.0066	0.0114	0.0115	0.0036	0.0016	0.0014	-0.0015	-0.0064	0.0045
55	0.53635	0.0000	0.0000	0.0000	0.0031	0.0091	0.0071	-0.0037	0.0038	0.0014	0.0023	-0.0057	-0.0042
56	0.54922	0.0000	0.0000	0.0000	0.0002	0.0098	0.0091	-0.0001	0.0030	0.0014	0.0000	-0.0085	-0.0019
57	0.55922	0.0000	0.0000	0.0000	-0.0021	0.0120	0.0140	-0.0008	0.0008	-0.0015	-0.0014	-0.0040	-0.0005
58	0.57300	0.0000	0.0000	0.0000	0.0000	0.0000	0.0000	-0.0022	0.0037	0.0021	0.0016	-0.0025	-0.0026
59	0.56995	0.0000	0.0000	0.0000	-0.0086	0.0076	0.0145	-0.0080	0.0037	0.0013	0.0030	-0.0039	-0.0025
60	0.58146	0.0000	0.0000	0.0000	-0.0057	0.0040	0.0159	0.0001	0.0085	-0.0008	0.0001	-0.0125	-0.0024
61	0.59149	0.0000	0.0000	0.0000	-0.0091	0.0097	0.0125	0.0000	0.0000	0.0000	-0.0014	-0.0116	0.0005
62	0.60358	0.0000	0.0000	0.0000	-0.0105	0.0162	0.0129	-0.0028	0.0077	-0.0015	-0.0057	-0.0107	-0.0047
63	0.61360	0.0000	0.0000	0.0000	-0.0089	0.0081	0.0084	-0.0007	0.0047	0.0023	-0.0012	-0.0070	-0.0046
64	0.62604	0.0000	0.0000	0.0000	-0.0089	0.0103	0.0117	-0.0013	0.0081	-0.0006	-0.0028	-0.0069	0.0012
65	0.63601	0.0000	0.0000	0.0000	-0.0053	0.0095	0.0151	0.0000	0.0000	0.0000	0.0010	-0.0047	-0.0016
66	0.64883	0.0000	0.0000	0.0000	-0.0049	0.0080	0.0075	-0.0029	0.0015	0.0016	0.0002	-0.0061	-0.0031
67	0.65880	0.0000	0.0000	0.0000	-0.0071	0.0093	0.0099	-0.0014	0.0050	0.0002	-0.0019	-0.0045	-0.0009
68	0.67046	0.0000	0.0000	0.0000	-0.0033	0.0091	0.0104	0.0045	0.0041	0.0003	0.0017	-0.0074	-0.0023
69	0.66951	0.0000	0.0000	0.0000	0.0000	0.0000	0.0000	0.0000	0.0000	0.0000	0.0016	-0.0131	-0.0007
70	0.68120	0.0000	0.0000	0.0000	-0.0009	0.0080	0.0141	0.0002	0.0084	0.0003	-0.0048	-0.0063	-0.0031
71	0.69350	0.0000	0.0000	0.0000	0.0009	0.0077	0.0094	-0.0006	0.0083	0.0032	0.0025	-0.0092	-0.0015
72	0.70346	0.0000	0.0000	0.0000	-0.0076	0.0103	0.0087	-0.0007	-0.0013	0.0019	-0.0033	-0.0083	-0.0016
73	0.71522	0.0000	0.0000	0.0000	-0.0030	0.0056	0.0070	0.0009	0.0059	-0.0018	-0.0019	-0.0119	-0.0008
74	0.72535	0.0000	0.0000	0.0000	-0.0041	0.0045	0.0029	0.0053	0.0065	0.0055	-0.0012	-0.0184	-0.0029
75	0.73870	0.0000	0.0000	0.0000	-0.0031	0.0041	-0.0010	0.0009	0.0050	-0.0010	-0.0011	-0.0147	-0.0052
76	0.74907	0.0000	0.0000	0.0000	-0.0016	0.0053	0.0080	0.0024	0.0048	-0.0009	-0.0017	-0.0044	-0.0039
77	0.75030	0.0000	0.0000	0.0000	0.0000	0.0000	0.0000	0.0000	0.0000	0.0000	0.0004	-0.0124	-0.0045
78	0.76161	0.0000	0.0000	0.0000	-0.0077	-0.0052	-0.0034	-0.0020	0.0026	-0.0017	0.0006	0.0036	-0.0084
79	0.77107	0.0000	0.0000	0.0000	-0.0117	-0.0037	0.0001	-0.0072	0.0012	-0.0038	-0.0028	-0.0209	0.0071
80	0.78325	0.0000	0.0000	0.0000	-0.0012	-0.0054	-0.0044	-0.0049	0.0063	0.0042	0.0017	-0.0129	0.0048
81	0.79341	0.0000	0.0000	0.0000	-0.0083	-0.0101	-0.0057	-0.0027	0.0040	-0.0031	-0.0002	-0.0086	-0.0049
82	0.80536	0.0000	0.0000	0.0000	-0.0067	-0.0052	-0.0053	-0.0056	0.0055	0.0013	-0.0010	-0.0078	0.0002
83	0.81555	0.0000	0.0000	0.0000	-0.0065	-0.0076	-0.0056	0.0024	0.0046	0.0014	0.0055	-0.0028	0.0031
84	0.82863	0.0000	0.0000	0.0000	-0.0063	-0.0077	-0.0060	0.0024	0.0039	-0.0015	-0.0010	-0.0072	-0.0036
85	0.83868	0.0000	0.0000	0.0000	-0.0039	-0.0071	-0.0106	-0.0042	0.0041	0.0050	-0.0010	-0.0057	-0.0022
86	0.84623	0.0000	0.0000	0.0000	0.0000	0.0000	0.0000	-0.0042	0.0041	0.0014	-0.0011	-0.0115	-0.0015
87	0.85188	0.0000	0.0000	0.0000	-0.0039	-0.0108	-0.0081	0.0000	0.0000	0.0000	-0.0040	-0.0115	0.0012
88	0.86142	0.0000	0.0000	0.0000	0.0056	-0.0100	-0.0034	-0.0005	0.0062	0.0028	-0.0025	-0.0108	-0.0010
89	0.87264	0.0000	0.0000	0.0000	0.0050	-0.0078	-0.0081	-0.0021	0.0034	0.0021	0.0026	-0.0087	0.0004
90	0.88305	0.0000	0.0000	0.0000	-0.0030	-0.0077	-0.0042	-0.0020	0.0078	0.0006	-0.0002	-0.0074	-0.0056
91	0.89312	0.0000	0.0000	0.0000	0.0022	-0.0106	-0.0065	0.0001	0.0020	0.0014	0.0012	-0.0097	-0.0049
92	0.90551	0.0000	0.0000	0.0000	-0.0006	-0.0142	-0.0125	0.0030	-0.0002	0.0044	-0.0032	-0.0031	-0.0015
93	0.91560	0.0000	0.0000	0.0000	-0.0013	-0.0112	-0.0113	0.0016	0.0072	0.0028	0.0004	-0.0047	-0.0037
94	0.92858	0.0000	0.0000	0.0000	0.0010	-0.0098	-0.0143	0.0002	0.0065	0.0013	-0.0019	-0.0069	0.0020
95	0.93836	0.0000	0.0000	0.0000	0.0037	-0.0068	-0.0078	0.0008	0.0029	-0.0023	0.0018	-0.0100	-0.0001
96	0.94620	0.0000	0.0000	0.0000	0.0000	0.0000	0.0000	0.0066	0.0006	-0.0015	-0.0019	-0.0078	-0.0003
97	0.95170	0.0000	0.0000	0.0000	-0.0015	-0.0133	-0.0015	-0.0028	0.0030	-0.0038	0.0003	-0.0116	-0.0017
98	0.96179	0.0000	0.0000	0.0000	-0.0044	-0.0044	-0.0026	-0.0057	0.0031	-0.0024	0.0039	-0.0066	0.0019
99	0.97425	0.0000	0.0000	0.0000	-0.0059	-0.0130	-0.0020	0.0000	0.0000	0.0000	-0.0040	-0.0059	-0.0027
100	0.98362	0.0000	0.0000	0.0000	-0.0088	-0.0099	-0.0036	0.0030	0.0067	0.0036	-0.0018	-0.0024	-0.0028
101	0.99451	0.0000	0.0000	0.0000	-0.0038	-0.0069	-0.0014	0.0000	0.0000	0.0000	0.0061	-0.0040	-0.0026
102	0.00000	-0.0040	-0.0005	-0.0024	-0.0052	-0.0140	-0.0060	-0.0014	0.0053	0.0021	0.0039	-0.0048	-0.0019
103	0.00984	-0.0005	0.0000	0.0014	-0.0067	-0.0102	-0.0033	0.0029	-0.0035	-0.0021	-0.0018	-0.0070	-0.0108
104	0.02105	0.0001	-0.0023	0.0007	-0.0053	-0.0114	-0.0042	-0.0014	0.0054	0.0015	-0.0048	-0.0069	-0.0050
105	0.03198	-0.0023	0.0035	0.0103	-0.0068	-0.0046	-0.0023	0.0001	0.0047	0.0016	-0.0020	-0.0098	-0.0012
106	1.04077	0.0000	0.0000	0.0000	0.0000	0.0000	0.0000	0.0000	0.0000	0.0000	-0.0004	-0.0047	-0.0042
107	0.05179	-0.0007	0.0056	0.0039	-0.0019	0.0004	-0.0005	-0.0014	0.0016	-0.0063	-0.0085	-0.0103	-0.0014
108	1.06227	0.0000	0.0000	0.0000	0.0016	0.0022	0.0016	0.0000	0.0000	0.0000	0.0003	-0.0083	-0.0041
109	0.07139	-0.0046	-0.0066	0.0063	0.0000	0.0018	0.0027	-0.0029	0.0016	-0.0004	0.0025	-0.0038	0.0017
110	1.08302	0.0000	0.0000	0.0000	-0.0015	0.0058	0.0010	0.0000	0.0000	0.0000	0.0010	-0.0067	-0.0012
111	0.09156	-0.0039	-0.0036	0.0093	-0.0007	0.0039	-0.0029	-0.0014	0.0044	0.0039	-0.0011	-0.0082	-0.0077
112	0.10022	-0.0040	-0.0073	0.0086	-0.0015	-0.0023	-0.0016	-0.0005	0.0086	-0.0041	0.0011	-0.0053	-0.0033
113	0.11122	-0.0084	-0.0089	0.0070	-0.0087	-0.0012	-0.0095	-0.0021	0.0042	-0.0011	0.0010	-0.0087	0.0011
114	0.12122	0.0000	0.0000	0.0000	0.0000	0.0000	0.0000	0.0000	0.0000	0.0000	0.0000	0.0000	0.0000
115	0.13171	-0.0112	-0.0039	0.0046	-0.0073	0.0012	-0.0074	-0.0027	0.0107	-0.0018	-0.0063	-0.0108	0.0003
116	0.14141	-0.0003	-0.0064	0.0026	-0.0067	-0.0017	-0.0038	0.0031	0.0061	-0.0017	-0.0011	-0.0101	-0.0033
117	0.15043	-0.0098	-0.0056	0.0030	0.0000	0.0000	0.0000	0.0009	0.0053	-0.0039	0.0040	-0.0058	-0.0032
118	0.16119	-0.0004	-0.0036	0.0066	-0.0017	0.0007	-0.0025	0.0017	0.0075	0.0019	0.0011	-0.0087	-0.0025
119	0.17077	-0.0012	-0.0102	0.0058	-0.0037	0.0029	-0.0070	0.0000	0.0000	0.0000	-0.0020	-0.0129	0.0048
120	0.18071	0.0019	-0.0053	0.0027	-0.0039	0.0002	-0.0035	0.0024	0.0067	-0.0011	-0.0004	-0.0058	-0.0026
121	0.19035	0.0026	-0.0097	0.0004	-0.0082	0.0010	-0.0037	-0.0035	0.0047	-0.0011	-0.0018	-0.0131	-0.0069
122	0.20058	-0.0031	-0.0089	0.0001	-0.0040	0.0026	-0.0008	-0.0021	0.0039	0.0011	-0.0011	-0.0065	-0.0033
123	0.21029	-0.0037	-0.0060	-0.0044	-0.0112	-0.0016	-0.0026	0.0016	0.0031	-0.0047	0.0004	-0.0036	-0.0011
124	0.22044	-0.0016	-0.0111	-0.0037	-0.0098	-0.0022	-0.0012	0.0016	0.0038	-0.0018	-0.0011	-0.0087	-0.0012
125	0.23107	0.0001	-0.0024	-0.0053	-0.0119	-0.0057	-0.0064	0.0009	0.0038	-0.0047	-0.0048	-0.0123	-0.0012
126	0.24106	0.0008	-0.0031	-0.0039	-0.0083	-0.0048	-0.0049	-0.0005	0.0054	-0.0048	0.0039	-0.0117	-0.0011
127	0.25129	0.0045	-0.0032	-0.0010	0.0000	0.0000	0.0000	0.0000	0.0000	0.0000	-0.0091	-0.0131	-0.0063
128	0.26106	-0.0021	-0.0023	-0.0004	-0.0056	0.0012	-0.0006	-0.0020	0.0055	0.0032	0.0011	-0.0038	-0.0062
129	0.27055	0.0037	-0.0074	-0.0003	-0.0070	-0.0016	-0.0058	-0.0020	0.0070	0.0024	0.0046	-0.0046	0.0018
130	0.28069	-0.0057	-0.0029	-0.0006	-0.0020	-0.0022	-0.0020	0.0017	0.0069	-0.0013	0.0003	-0.0055	-0.0055
131	0.29123	-0.0034	-0.0051	-0.0042	-0.0042	0.0009	-0.0036	0.0009	0.0041	0.0016	0.0003	-0.0063	-0.0069
132	0.30112	-0.0041	-0.0014	-0.0036	-0.0049	-0.0056	-0.0058	0.0001	0.0005	-0.0020	0.0010	-0.0033	-0.0011
133	0.31029	-0.0032	0.0029	-0.0080	-0.0006	-0.0018	-0.0050	-0.0028	0.0058	0.0000	-0.0062	-0.0077	-0.0069
134	0.32018	-0.0011	0.0014	-0.0037	-0.0051	-0.0023	-0.0030	-0.0006	0.0058	-0.0022	-0.0027	-0.0070	-0.0017
135	0.33126	-0.0033	-0.0029	-0.0051	-0.0045	-0.0037	0.0007	0.0000	0.0000	0.0000	-0.0005	-0.0027	0.0020
136	0.34026	0.0033	0.0021	-0.0029	0.0000	0.0000	0.0000	-0.0020	0.0080	-0.0015	-0.0027	-0.0122	-0.0023
137	0.35064	0.0004	-0.0023	-0.0102	-0.0024	-0.0012	-0.0000	0.0008	0.0029	-0.0015	0.0023	-0.0100	0.0022
138	0.36097	-0.0026	-0.0008	-0.0037	0.0000	0.0000	0.0000	-0.0021	0.0023	-0.0045	0.0031	-0.0065	-0.0021
139	0.37217	-0.0011	-0.0002	-0.0087	-0.0067	-0.0011	-0.0023	-0.0005	0.0110	-0.0017	-0.0012	-0.0050	-0.0029
140	0.38126	-0.0070	-0.0029	-0.0037	-0.0149	-0.0040	0.0012	-0.0042	0.0053	-0.0024	0.0017	-0.0080	-0.0064
141	0.39051	-0.0056	-0.0000	-0.0022	-0.0106	0.0018	0.0028	0.0016	0.0038	-0.0038	-0.0021	-0.0072	0.0023
142	0.40077	-0.0033	0.0042	-0.0058	-0.0083	-0.0033	0.0007	-0.0013	0.0054	-0.0010	0.0031	-0.0074	-0.0048
143	0.41214	-0.0026	0.0035	-0.0058	-0.0090	-0.0033	-0.0001	-0.0021	0.0063	0.0025	0.0030	-0.0095	0.0004
144	0.42119	-0.0032	0.0064	-0.0066	-0.0105	-0.0025	-0.0008	0.0029	0.0004	-0.0004	-0.0028	-0.0095	-0.0004
145	0.43287	-0.0076	0.0064	-0.0103	-0.0119	-0.0039	-0.0037	0.0000	0.0000	0.0000	0.0002	-0.0046	-0.0046
146	0.44163	-0.0032	0.0078	-0.0101	-0.0119	-0.0061	-0.0051	0.0016	0.0049	-0.0027	0.0023	-0.0047	-0.0030
147	0.45260	-0.0047	0.0063	-0.0115	0.0000	0.0000	0.0000	-0.0058	0.0022	-0.0013	-0.0029	-0.0126	-0.0007
148	0.46199	-0.0040	0.0078	-0.0085	-0.0113	-0.0104	-0.0008	-0.0050	0.0059	-0.0006	-0.0028	-0.0047	-0.0022
149	0.47314	-0.0040	0.0056	-0.0135	-0.0046	-0.0075	-0.0042	-0.0028	0.0067	-0.0007	-0.0043	-0.0061	0.0008
150	0.48184	-0.0056	0.0056	-0.0090	-0.0076	-0.0075	-0.0007	-0.0021	0.0023	-0.0036	-0.0050	-0.0061	-0.0006
151	0.49278	-0.0027	0.0047	-0.0132	-0.0099	-0.0059	0.0014	-0.0029	-0.0012	-0.0028	-0.0044	-0.0047	0.0031
152	0.50148	0.0017	0.0088	-0.0145	-0.0068	-0.0067	-0.0072	-0.0014	0.0046	-0.0022	-0.0037	-0.0120	0.0011
153	0.51158	0.0051	0.0036	-0.0113	-0.0098	-0.0051	-0.0050	-0.0001	-0.0012	0.0015	0.0000	-0.0098	-0.0003
154	0.52206	0.0078	0.0063	-0.0075	-0.0042	-0.0035	0.0010	-0.0021	0.0017	-0.0052	-0.0007	-0.0098	-0.0010
155	0.53152	0.0049	0.0091	-0.0132	-0.0078	-0.0070	-0.0027	0.0015	0.0030	-0.0001	0.0015	-0.0099	-0.0045
156	0.54200	0.0033	0.0067	-0.0115	0.0000	0.0000	0.0000	-0.0036	0.0060	0.0027	-0.0013	-0.0040	-0.0031
157	0.55166	0.0010	0.0117	-0.0114	-0.0072	-0.0030	-0.0066	0.0030	0.0065	0.0020	0.0009	-0.0062	-0.0059
158	0.56180	0.0023	0.0137	-0.0082	0.0000	0.0000	0.0000	-0.0014	0.0021	-0.0017	-0.0013	-0.0011	-0.0045
159	0.57166	0.0064	0.0084	-0.0049	0.0005	-0.0115	-0.0004	0.0030	0.0027	-0.0025	0.0023	-0.0040	-0.0043
160	0.58170	0.0049	0.0104	-0.0091	-0.0061	-0.0056	-0.0005	0.0009	0.0033	-0.0018	-0.0029	-0.0091	-0.0035
161	0.59175	0.0025	0.0097	-0.0045	-0.0136	-0.0076	0.0024	0.0009	0.0054	-0.0041	-0.0029	-0.0053	0.0023
162	0.60170	0.0045	0.0080	-0.0056	-0.0063	-0.0074	-0.0015	-0.0020	0.0054	-0.0020	-0.0043	-0.0046	0.0001
163	0.61168	0.0029	0.0085	-0.0083	-0.0085	-0.0094	-0.0035	0.0003	0.0089	0.0001	-0.0043	-0.0046	-0.0013
164	0.62175	0.0049	0.0113	-0.0051	-0.0052	-0.0049	0.0011	-0.0049	0.0052	0.0000	-0.0014	-0.0082	-0.0033
165	0.63182	0.0002	0.0083	-0.0026	-0.0067	-0.0025	-0.0008	0.0010	0.0058	0.0021	-0.0029	-0.0082	-0.0011
166	0.64239	0.0001	0.0103	-0.0030	0.0000	0.0000	0.0000	0.0011	0.0094	-0.0023	-0.0007	-0.0089	-0.0031
167	0.65178	0.0014	0.0100	-0.0034	-0.0098	0.0082	0.0106	-0.0012	0.0050	-0.0002	-0.0014	-0.0059	0.0020
168	0.66214	0.0055	0.0061	-0.0059	0.0000	0.0000	0.0000	0.0011	0.0056	-0.0038	-0.0035	-0.0052	-0.0053
169	0.67188	0.0024	0.0067	-0.0027	-0.0055	0.0043	0.0059	-0.0063	0.0050	-0.0032	-0.0028	-0.0081	-0.0023
170	0.68254	-0.0002	0.0007	0.0006	-0.0087	0.0026	0.0067	0.0025	0.0048	0.0012	-0.0022	-0.0095	-0.0007
171	0.69188	0.0040	0.0040	0.0017	-0.0089	0.0002	0.0076	-0.0025	0.0077	-0.0019	0.0001	-0.0058	-0.0007
172	0.70189	0.0052	0.0037	0.0013	-0.0092	0.0035	0.0092	-0.0012	0.0033	-0.0011	0.0022	-0.0066	0.0009
173	0.71201	0.0035	0.0012	0.0023	-0.0085	0.0068	0.0071	0.0010	0.0017	-0.0004	0.0059	-0.0088	-0.0055
174	0.72197	0.0039	-0.0013	0.0048	-0.0100	0.0034	0.0000	-0.0018	0.0068	-0.0012	0.0016	-0.0065	-0.0041
175	0.73224	-0.0015	0.0028	0.0093	-0.0059	0.0073	0.0075	0.0004	0.0075	0.0002	-0.0021	-0.0115	-0.0047
176	0.74202	0.0056	0.0037	0.0053	-0.0095	0.0052	0.0053	0.0033	0.0052	0.0010	-0.0021	-0.0136	-0.0032
177	0.75206	0.0055	-0.0010	-0.0017	-0.0089	0.0090	0.0046	-0.0019	0.0030	-0.0005	-0.0035	-0.0069	-0.0003
178	0.76208	0.0021	-0.0070	0.0080	-0.0029	0.0097	-0.0024	-0.0025	0.0058	0.0023	-0.0035	-0.0032	0.0004
179	0.77213	-0.0032	-0.0071	0.0088	-0.0059	0.0069	0.0005	-0.0032	0.0072	0.0002	-0.0042	-0.0084	-0.0031
180	0.78209	0.0004	-0.0044	0.0076	-0.0052	0.0134	-0.0008	0.0011	0.0034	-0.0005	0.0016	-0.0047	0.0013
181	0.79216	0.0017	-0.0097	0.0071	-0.0023	0.0120	0.0001	0.0019	0.0069	0.0024	-0.0043	-0.0068	0.0012
182	0.80230	-0.0058	-0.0125	0.0079	-0.0010	0.0186	0.0031	-0.0009	0.0112	-0.0028	0.0016	-0.0070	-0.0023
183	0.81224	-0.0058	-0.0098	0.0044	-0.0081	0.0113	-0.0050	-0.0024	0.0076	-0.0035	0.0017	-0.0041	-0.0052
184	0.82217	-0.0052	-0.0084	0.0083	-0.0053	0.0113	0.0002	0.0012	0.0075	-0.0021	-0.0013	-0.0070	-0.0059
185	0.83230	-0.0059	-0.0064	0.0033	-0.0147	0.0149	-0.0007	-0.0002	0.0074	-0.0035	-0.0006	-0.0077	-0.0015
186	0.84233	-0.0038	-0.0029	0.0049	-0.0102	0.0090	-0.0062	0.0020	0.0088	-0.0028	-0.0036	-0.0127	-0.0007
187	0.85244	-0.0040	-0.0051	0.0080	-0.0081	0.0066	-0.0029	-0.0010	0.0060	-0.0021	-0.0013	-0.0032	-0.0001
188	0.86236	-0.0011	-0.0046	0.0059	0.0000	0.0000	0.0000	-0.0003	0.0045	-0.0006	-0.0020	-0.0048	-0.0022
189	0.87238	-0.0026	-0.0069	0.0038	-0.0066	0.0093	-0.0070	-0.0033	0.0009	0.0009	-0.0006	-0.0033	-0.0022
190	0.88251	0.0031	-0.0129	0.0026	-0.0081	0.0121	-0.0046	0.0012	0.0089	0.0016	0.0017	-0.0005	-0.0073
191	0.89247	-0.0014	-0.0121	0.0063	-0.0088	0.0133	-0.0029	-0.0003	0.0022	-0.0034	-0.0013	-0.0025	0.0008
192	0.90301	0.0015	-0.0122	0.0028	-0.0110	0.0116	-0.0041	0.0006	0.0095	-0.0049	0.0001	-0.0047	-0.0006
